Time (h),miR-200,ZEB mRNA ,miR-34,SNAIL mRNA,Signal driving SNAIL
0,37181.88,3.52,35092.82,17.54,0
0.041666667,37386.38398,7.142673761,34632.61809,71.25205662,27.77777778
0.083333333,37541.97536,8.887348465,34146.83638,96.92383401,55.55555556
0.125,37663.82739,9.898738469,33662.67174,109.4769144,83.33333333
0.166666667,37764.59876,10.48000569,33191.22405,115.7690042,111.1111111
0.208333333,37851.9089,10.81155249,32737.08268,119.0885271,138.8888889
0.25,37929.88331,11.00957129,32301.86046,121.0022786,166.6666667
0.291666667,38000.59597,11.13586981,31885.70296,122.1957834,194.4444444
0.333333333,38065.34556,11.22683039,31488.29668,123.0591223,222.2222222
0.375,38124.88163,11.30114375,31109.02273,123.7755641,250
0.416666667,38179.64077,11.36682121,30747.11487,124.4142785,277.7777778
0.458333333,38229.94387,11.42749749,30401.78595,125.0065043,305.5555556
0.5,38276.3027,11.48639586,30071.54886,125.5832251,333.3333333
0.541666667,38318.58253,11.5426951,29756.79927,126.1366934,361.1111111
0.583333333,38357.25529,11.59824582,29456.02806,126.6838031,388.8888889
0.625,38392.30303,11.65297736,29169.2926,127.2239059,416.6666667
0.666666667,38424.05764,11.70731276,28895.44178,127.7608736,444.4444444
0.708333333,38452.61424,11.7614161,28634.15003,128.2962092,472.2222222
0.75,38478.16732,11.81521603,28384.7129,128.8294011,500
0.791666667,38500.89676,11.86877526,28146.49107,129.3611104,527.7777778
0.833333333,38521.29846,11.92202269,27917.684,129.8907266,555.5555556
0.875,38539.6735,11.97494388,27697.20303,130.4181651,583.3333333
0.916666667,38555.51459,12.02756317,27486.88242,130.9435681,611.1111111
0.958333333,38568.82175,12.07988055,27286.72217,131.4669357,638.8888889
1,38579.59497,12.13189603,27096.72229,131.9882679,666.6666667
1.041666667,38587.86201,12.18360765,26916.78272,132.5075634,694.4444444
1.083333333,38595.37521,12.23489163,26740.58671,133.0247368,722.2222222
1.125,38600.90897,12.28583453,26572.55225,133.5398478,750
1.166666667,38604.46328,12.33643636,26412.67933,134.0528964,777.7777778
1.208333333,38606.03816,12.38669712,26260.96796,134.5638827,805.5555556
1.25,38605.63359,12.43661681,26117.41813,135.0728065,833.3333333
1.291666667,38604.07523,12.48619697,25979.04557,135.5799086,861.1111111
1.333333333,38601.65247,12.53543813,25844.80434,136.0852734,888.8888889
1.375,38597.76421,12.58433919,25716.86701,136.5887256,916.6666667
1.416666667,38592.41046,12.63290014,25595.2336,137.0902652,944.4444444
1.458333333,38585.59122,12.68112097,25479.90409,137.5898922,972.2222222
1.5,38577.36245,12.72900598,25370.67368,138.0876327,1000
1.541666667,38568.95571,12.77664957,25263.03568,138.5840586,1027.777778
1.583333333,38559.4916,12.82398433,25160.20805,139.0787616,1055.555556
1.625,38548.97015,12.87101027,25062.19079,139.5717416,1083.333333
1.666666667,38537.39134,12.91772737,24968.9839,140.0629986,1111.111111
1.708333333,38524.75518,12.96413565,24880.58738,140.5525327,1138.888889
1.75,38511.31127,13.01028125,24796.03884,141.0405026,1166.666667
1.791666667,38497.24915,13.05618528,24714.63277,141.5270069,1194.444444
1.833333333,38482.4958,13.10182641,24636.66485,142.0119868,1222.222222
1.875,38467.11007,13.14721093,24561.91656,142.4954722,1250
1.916666667,38451.15081,13.19234508,24490.16936,142.9774934,1277.777778
1.958333333,38434.67687,13.23723515,24421.20472,143.4580805,1305.555556
2,38417.74711,13.28188739,24354.8041,143.9372636,1333.333333
2.041666667,38400.42036,13.32630808,24290.74896,144.4150729,1361.111111
2.083333333,38382.75547,13.37050348,24228.82078,144.8915384,1388.888889
2.125,38364.31973,13.41448969,24170.45436,145.3665288,1416.666667
2.166666667,38345.47175,13.45826698,24114.42294,145.8401727,1444.444444
2.208333333,38326.27381,13.50184155,24060.49641,146.3125013,1472.222222
2.25,38306.76693,13.54522003,24008.51622,146.7835389,1500
2.291666667,38286.99214,13.58840903,23958.32379,147.2533099,1527.777778
2.333333333,38266.99046,13.63141519,23909.76056,147.7218384,1555.555556
2.375,38246.8029,13.67424511,23862.66794,148.1891487,1583.333333
2.416666667,38226.47048,13.71690544,23816.88739,148.6552651,1611.111111
2.458333333,38205.88263,13.75941078,23772.77394,149.1201624,1638.888889
2.5,38184.82919,13.80178101,23731.02001,149.5837827,1666.666667
2.541666667,38163.58337,13.84401049,23690.68039,150.0462262,1694.444444
2.583333333,38142.16903,13.88610678,23651.6546,150.5075115,1722.222222
2.625,38120.61006,13.92807738,23613.84213,150.9676573,1750
2.666666667,38098.93034,13.96992982,23577.14251,151.4266823,1777.777778
2.708333333,38077.15374,14.01167164,23541.45524,151.8846052,1805.555556
2.75,38055.30415,14.05331037,23506.67983,152.3414446,1833.333333
2.791666667,38033.40543,14.09485352,23472.71579,152.7972191,1861.111111
2.833333333,38011.2504,14.13625674,23440.27848,153.2518365,1888.888889
2.875,37988.91284,14.17753878,23409.09123,153.7053394,1916.666667
2.916666667,37966.47962,14.21872129,23378.83109,154.1577767,1944.444444
2.958333333,37943.9632,14.25980925,23349.43795,154.6091616,1972.222222
3,37921.37601,14.3008076,23320.85167,155.0595072,2000
3.041666667,37898.73051,14.34172132,23293.01212,155.5088268,2027.777778
3.083333333,37876.03914,14.38255536,23265.85917,155.9571335,2055.555556
3.125,37853.31435,14.42331469,23239.3327,156.4044406,2083.333333
3.166666667,37830.55263,14.4639991,23213.43449,156.8507507,2111.111111
3.208333333,37807.62398,14.5045675,23188.65708,157.2959854,2138.888889
3.25,37784.64314,14.54505791,23164.54349,157.7402236,2166.666667
3.291666667,37761.61678,14.58547345,23141.05597,158.1834749,2194.444444
3.333333333,37738.55158,14.6258172,23118.15679,158.6257487,2222.222222
3.375,37715.4542,14.66609225,23095.80821,159.0670545,2250
3.416666667,37692.33134,14.7063017,23073.97249,159.5074016,2277.777778
3.458333333,37669.18966,14.74644865,23052.61189,159.9467997,2305.555556
3.5,37646.03584,14.78653619,23031.68867,160.3852581,2333.333333
3.541666667,37622.80816,14.826548,23011.4824,160.8227341,2361.111111
3.583333333,37599.49082,14.86648079,22992.05958,161.25922,2388.888889
3.625,37576.15131,14.90635491,22973.10041,161.6947717,2416.666667
3.666666667,37552.7944,14.94617294,22954.57592,162.1293971,2444.444444
3.708333333,37529.4249,14.98593742,22936.45711,162.5631043,2472.222222
3.75,37506.04758,15.02565092,22918.71501,162.9959012,2500
3.791666667,37482.66724,15.065316,22901.32062,163.427796,2527.777778
3.833333333,37459.28866,15.10493521,22884.24497,163.8587966,2555.555556
3.875,37435.91663,15.14451111,22867.45907,164.288911,2583.333333
3.916666667,37412.55595,15.18404626,22850.93394,164.7181472,2611.111111
3.958333333,37389.2114,15.22354323,22834.64059,165.1465133,2638.888889
4,37365.88777,15.26300457,22818.55004,165.5740172,2666.666667
4.041666667,37342.58985,15.30243283,22802.6333,166.000667,2694.444444
4.083333333,37319.32242,15.34183059,22786.8614,166.4264707,2722.222222
4.125,37296.08088,15.3811971,22771.25116,166.8514277,2750
4.166666667,37272.70787,15.42047824,22756.56342,167.2753987,2777.777778
4.208333333,37249.34366,15.45972394,22742.10926,167.6985149,2805.555556
4.25,37225.9907,15.49893593,22727.87105,168.1207821,2833.333333
4.291666667,37202.65146,15.53811597,22713.83114,168.5422062,2861.111111
4.333333333,37179.3284,15.5772658,22699.97188,168.9627931,2888.888889
4.375,37156.02397,15.61638716,22686.27562,169.3825488,2916.666667
4.416666667,37132.74065,15.6554818,22672.72473,169.801479,2944.444444
4.458333333,37109.48089,15.69455147,22659.30156,170.2195898,2972.222222
4.5,37086.24715,15.73359791,22645.98845,170.636887,3000
4.541666667,37063.0419,15.77262286,22632.76778,171.0533766,3027.777778
4.583333333,37039.86759,15.81162808,22619.62189,171.4690643,3055.555556
4.625,37016.72668,15.8506153,22606.53313,171.8839561,3083.333333
4.666666667,36993.62165,15.88958627,22593.48387,172.2980579,3111.111111
4.708333333,36970.55494,15.92854273,22580.45645,172.7113756,3138.888889
4.75,36947.44881,15.96744513,22567.85894,173.1238346,3166.666667
4.791666667,36924.31523,16.00630011,22555.62321,173.5354503,3194.444444
4.833333333,36901.19929,16.04513136,22543.50539,173.9462713,3222.222222
4.875,36878.10171,16.08393972,22531.49711,174.3563019,3250
4.916666667,36855.02318,16.12272605,22519.58999,174.7655462,3277.777778
4.958333333,36831.96444,16.16149119,22507.77568,175.1740083,3305.555556
5,36808.92618,16.20023598,22496.04581,175.5816924,3333.333333
5.041666667,36785.90913,16.23896127,22484.39201,175.9886026,3361.111111
5.083333333,36762.91399,16.2776679,22472.80592,176.394743,3388.888889
5.125,36739.94149,16.31635672,22461.27916,176.8001178,3416.666667
5.166666667,36716.99232,16.35502857,22449.80337,177.2047311,3444.444444
5.208333333,36694.06721,16.3936843,22438.37019,177.6085872,3472.222222
5.25,36671.16687,16.43232475,22426.97125,178.01169,3500
5.291666667,36648.29201,16.47095076,22415.59818,178.4140438,3527.777778
5.333333333,36625.4343,16.50955566,22404.3059,178.81564,3555.555556
5.375,36602.55662,16.54810876,22393.35085,179.2164301,3583.333333
5.416666667,36579.69559,16.58664083,22382.47336,179.6164682,3611.111111
5.458333333,36556.85122,16.62515212,22371.66999,180.0157575,3638.888889
5.5,36534.02351,16.66364288,22360.93729,180.4143013,3666.666667
5.541666667,36511.21248,16.70211339,22350.2718,180.8121025,3694.444444
5.583333333,36488.41815,16.7405639,22339.67008,181.2091645,3722.222222
5.625,36465.64051,16.77899466,22329.12868,181.6054904,3750
5.666666667,36442.87958,16.81740595,22318.64414,182.0010833,3777.777778
5.708333333,36420.13537,16.85579801,22308.21302,182.3959464,3805.555556
5.75,36397.4079,16.89417112,22297.83187,182.7900828,3833.333333
5.791666667,36374.69716,16.93252552,22287.49724,183.1834957,3861.111111
5.833333333,36352.00318,16.97086148,22277.20567,183.5761883,3888.888889
5.875,36329.32596,17.00917925,22266.95372,183.9681638,3916.666667
5.916666667,36306.66551,17.04747911,22256.73794,184.3594252,3944.444444
5.958333333,36284.01902,17.08575043,22246.65287,184.7499495,3972.222222
6,36261.38769,17.12399801,22236.65422,185.1397508,4000
6.041666667,36238.77234,17.16222529,22226.70984,185.52884,4027.777778
6.083333333,36216.17293,17.20043233,22216.81802,185.9172196,4055.555556
6.125,36193.58943,17.23861921,22206.97709,186.3048926,4083.333333
6.166666667,36171.0218,17.27678598,22197.18534,186.6918614,4111.111111
6.208333333,36148.46999,17.31493271,22187.44109,187.0781288,4138.888889
6.25,36125.93397,17.35305947,22177.74264,187.4636975,4166.666667
6.291666667,36103.41369,17.39116631,22168.0883,187.8485702,4194.444444
6.333333333,36080.90911,17.42925331,22158.47638,188.2327496,4222.222222
6.375,36058.4202,17.46732053,22148.90518,188.6162383,4250
6.416666667,36035.94692,17.50536803,22139.37302,188.9990391,4277.777778
6.458333333,36013.48922,17.54339588,22129.8782,189.3811546,4305.555556
6.5,35991.04706,17.58140414,22120.41903,189.7625876,4333.333333
6.541666667,35968.62604,17.61939094,22110.94549,190.143462,4361.111111
6.583333333,35946.23428,17.65735316,22101.40008,190.5239313,4388.888889
6.625,35923.8595,17.69529486,22091.8951,190.9037193,4416.666667
6.666666667,35901.50172,17.73321605,22082.43055,191.2828258,4444.444444
6.708333333,35879.16092,17.77111673,22073.00643,191.6612508,4472.222222
6.75,35856.83711,17.80899688,22063.62275,192.0389945,4500
6.791666667,35834.5303,17.84685653,22054.27951,192.4160567,4527.777778
6.833333333,35812.24047,17.88469566,22044.97669,192.7924374,4555.555556
6.875,35789.96763,17.92251427,22035.71431,193.1681367,4583.333333
6.916666667,35767.71178,17.96031237,22026.49237,193.5431546,4611.111111
6.958333333,35745.47292,17.99808995,22017.31085,193.9174911,4638.888889
7,35723.25105,18.03584702,22008.16977,194.2911461,4666.666667
7.041666667,35701.04617,18.07358357,21999.06912,194.6641197,4694.444444
7.083333333,35678.85827,18.11129961,21990.00891,195.0364118,4722.222222
7.125,35656.68737,18.14899513,21980.98913,195.4080225,4750
7.166666667,35634.53346,18.18667014,21972.00978,195.7789518,4777.777778
7.208333333,35612.39653,18.22432463,21963.07087,196.1491996,4805.555556
7.25,35590.27659,18.26195861,21954.17239,196.518766,4833.333333
7.291666667,35568.17365,18.29957207,21945.31434,196.887651,4861.111111
7.333333333,35546.08769,18.33716501,21936.49672,197.2558545,4888.888889
7.375,35524.01872,18.37473745,21927.71954,197.6233766,4916.666667
7.416666667,35501.96674,18.41228936,21918.98279,197.9902172,4944.444444
7.458333333,35479.93175,18.44982076,21910.28648,198.3563765,4972.222222
7.5,35457.91375,18.48733165,21901.6306,198.7218542,5000
7.541666667,35435.91274,18.52482202,21893.01515,199.0866506,5027.777778
7.583333333,35413.92872,18.56229187,21884.44014,199.4507655,5055.555556
7.625,35391.96169,18.59974121,21875.90556,199.814199,5083.333333
7.666666667,35370.01165,18.63717004,21867.41141,200.176951,5111.111111
7.708333333,35348.07859,18.67457835,21858.95769,200.5390216,5138.888889
7.75,35326.16253,18.71196614,21850.54441,200.9004108,5166.666667
7.791666667,35304.26345,18.74933342,21842.17156,201.2611185,5194.444444
7.833333333,35282.38137,18.78668019,21833.83915,201.6211448,5222.222222
7.875,35260.51627,18.82400644,21825.54717,201.9804896,5250
7.916666667,35238.67637,18.86130362,21817.22048,202.3394931,5277.777778
7.958333333,35216.87262,18.89856032,21808.75891,202.6986083,5305.555556
8,35195.08744,18.93579486,21800.32331,203.0571076,5333.333333
8.041666667,35173.32083,18.97300723,21791.91368,203.4149909,5361.111111
8.083333333,35151.57278,19.01019745,21783.53,203.7722583,5388.888889
8.125,35129.84331,19.0473655,21775.1723,204.1289097,5416.666667
8.166666667,35108.13241,19.08451139,21766.84055,204.4849451,5444.444444
8.208333333,35086.44008,19.12163511,21758.53477,204.8403646,5472.222222
8.25,35064.76632,19.15873667,21750.25495,205.1951681,5500
8.291666667,35043.11113,19.19581607,21742.0011,205.5493556,5527.777778
8.333333333,35021.47451,19.23287331,21733.77321,205.9029272,5555.555556
8.375,34999.85646,19.26990838,21725.57128,206.2558829,5583.333333
8.416666667,34978.25698,19.3069213,21717.39532,206.6082225,5611.111111
8.458333333,34956.67608,19.34391205,21709.24532,206.9599462,5638.888889
8.5,34935.11374,19.38088063,21701.12129,207.3110539,5666.666667
8.541666667,34913.56997,19.41782706,21693.02322,207.6615457,5694.444444
8.583333333,34892.04477,19.45475132,21684.95111,208.0114215,5722.222222
8.625,34870.53815,19.49165341,21676.90497,208.3606814,5750
8.666666667,34849.05009,19.52853335,21668.88479,208.7093253,5777.777778
8.708333333,34827.5806,19.56539112,21660.89057,209.0573532,5805.555556
8.75,34806.12969,19.60222673,21652.92232,209.4047651,5833.333333
8.791666667,34784.69734,19.63904018,21644.98003,209.7515611,5861.111111
8.833333333,34763.28356,19.67583146,21637.06371,210.0977412,5888.888889
8.875,34741.88836,19.71260059,21629.17335,210.4433052,5916.666667
8.916666667,34720.51172,19.74934755,21621.30895,210.7882533,5944.444444
8.958333333,34699.15366,19.78607234,21613.47052,211.1325855,5972.222222
9,34677.81416,19.82277498,21605.65805,211.4763017,6000
9.041666667,34656.49324,19.85945545,21597.87155,211.8194019,6027.777778
9.083333333,34635.19089,19.89611376,21590.11101,212.1618861,6055.555556
9.125,34613.9071,19.9327499,21582.37643,212.5037544,6083.333333
9.166666667,34592.64189,19.96936388,21574.66782,212.8450068,6111.111111
9.208333333,34571.39525,20.0059557,21566.98517,213.1856431,6138.888889
9.25,34550.16717,20.04252536,21559.32848,213.5256635,6166.666667
9.291666667,34528.96652,20.07905594,21551.65758,213.8653766,6194.444444
9.333333333,34507.80454,20.11552594,21543.92141,214.2051744,6222.222222
9.375,34486.66281,20.15197058,21536.20362,214.5444146,6250
9.416666667,34465.54131,20.18838986,21528.50419,214.8830971,6277.777778
9.458333333,34444.44006,20.22478379,21520.82315,215.2212219,6305.555556
9.5,34423.35905,20.26115235,21513.16047,215.5587891,6333.333333
9.541666667,34402.29828,20.29749556,21505.51618,215.8957986,6361.111111
9.583333333,34381.25775,20.33381341,21497.89025,216.2322504,6388.888889
9.625,34360.23747,20.3701059,21490.2827,216.5681446,6416.666667
9.666666667,34339.23743,20.40637304,21482.69353,216.9034811,6444.444444
9.708333333,34318.25763,20.44261481,21475.12273,217.2382599,6472.222222
9.75,34297.29807,20.47883123,21467.5703,217.5724811,6500
9.791666667,34276.35876,20.51502229,21460.03625,217.9061445,6527.777778
9.833333333,34255.43969,20.55118799,21452.52057,218.2392504,6555.555556
9.875,34234.54086,20.58732833,21445.02326,218.5717985,6583.333333
9.916666667,34213.66227,20.62344331,21437.54433,218.903789,6611.111111
9.958333333,34192.80393,20.65953293,21430.08378,219.2352218,6638.888889
10,34171.96582,20.6955972,21422.6416,219.5660969,6666.666667
10.04166667,34151.14797,20.73163611,21415.21779,219.8964144,6694.444444
10.08333333,34130.35035,20.76764966,21407.81236,220.2261742,6722.222222
10.125,34109.57297,20.80363785,21400.4253,220.5553764,6750
10.16666667,34088.81584,20.83960068,21393.05661,220.8840208,6777.777778
10.20833333,34068.07895,20.87553816,21385.7063,221.2121076,6805.555556
10.25,34047.3623,20.91145027,21378.37437,221.5396368,6833.333333
10.29166667,34026.6659,20.94733703,21371.0608,221.8666082,6861.111111
10.33333333,34005.98973,20.98319843,21363.76562,222.193022,6888.888889
10.375,33985.33381,21.01903447,21356.4888,222.5188782,6916.666667
10.41666667,33964.69814,21.05484515,21349.23037,222.8441766,6944.444444
10.45833333,33944.0827,21.09063048,21341.9903,223.1689174,6972.222222
10.5,33923.48751,21.12639045,21334.76861,223.4931005,7000
10.54166667,33902.91256,21.16212505,21327.5653,223.816726,7027.777778
10.58333333,33882.35785,21.1978343,21320.38035,224.1397938,7055.555556
10.625,33861.82338,21.23351819,21313.21379,224.4623039,7083.333333
10.66666667,33841.31584,21.26917062,21306.04883,224.7845211,7111.111111
10.70833333,33820.84331,21.30478419,21298.86519,225.106766,7138.888889
10.75,33800.39226,21.34037127,21291.69682,225.4285023,7166.666667
10.79166667,33779.96269,21.37593186,21284.54372,225.7497299,7194.444444
10.83333333,33759.5546,21.41146596,21277.40588,226.070449,7222.222222
10.875,33739.16799,21.44697357,21270.28331,226.3906595,7250
10.91666667,33718.80287,21.48245469,21263.17601,226.7103614,7277.777778
10.95833333,33698.45922,21.51790932,21256.08398,227.0295547,7305.555556
11,33678.13706,21.55333746,21249.00721,227.3482394,7333.333333
11.04166667,33657.83637,21.58873911,21241.94571,227.6664155,7361.111111
11.08333333,33637.55717,21.62411427,21234.89948,227.9840831,7388.888889
11.125,33617.29944,21.65946294,21227.86851,228.301242,7416.666667
11.16666667,33597.0632,21.69478512,21220.85281,228.6178924,7444.444444
11.20833333,33576.84844,21.73008081,21213.85238,228.9340341,7472.222222
11.25,33556.65516,21.76535001,21206.86722,229.2496673,7500
11.29166667,33536.48336,21.80059272,21199.89732,229.5647919,7527.777778
11.33333333,33516.33304,21.83580894,21192.94269,229.8794079,7555.555556
11.375,33496.2042,21.87099866,21186.00333,230.1935153,7583.333333
11.41666667,33476.09685,21.9061619,21179.07923,230.5071141,7611.111111
11.45833333,33456.01097,21.94129865,21172.1704,230.8202043,7638.888889
11.5,33435.94658,21.97640891,21165.27684,231.132786,7666.666667
11.54166667,33415.90366,22.01149268,21158.39855,231.444859,7694.444444
11.58333333,33395.88223,22.04654996,21151.53552,231.7564234,7722.222222
11.625,33375.88227,22.08158074,21144.68776,232.0674793,7750
11.66666667,33355.9038,22.11658504,21137.85527,232.3780266,7777.777778
11.70833333,33335.94681,22.15156285,21131.03804,232.6880652,7805.555556
11.75,33316.0113,22.18651417,21124.23608,232.9975953,7833.333333
11.79166667,33296.09727,22.22143899,21117.44939,233.3066168,7861.111111
11.83333333,33276.20472,22.25633733,21110.67797,233.6151297,7888.888889
11.875,33256.33365,22.29120918,21103.92181,233.923134,7916.666667
11.91666667,33236.48406,22.32605453,21097.18092,234.2306298,7944.444444
