Time (h),miR-200,ZEB mRNA ,miR-34,SNAIL mRNA,Signal driving SNAIL
0,12000,320,0,0,50000
0.01,12010.21495,316.6138525,13.41756865,4.894390841,50000
0.02,12020.45204,313.2747543,26.67964781,9.68444581,50000
0.03,12030.70439,309.9845811,39.78896308,14.37217214,50000
0.04,12040.95333,306.7481402,52.75351711,18.96340537,50000
0.05,12051.18469,303.5687752,65.57943701,23.46253098,50000
0.06,12061.38969,300.448539,78.27052661,27.87227074,50000
0.07,12071.54832,297.391795,90.83555394,32.19882873,50000
0.08,12081.66293,294.3969775,103.2741356,36.44175394,50000
0.09,12091.71644,291.467396,115.5940348,40.60647138,50000
0.1,12101.69683,288.605994,127.800341,44.69663859,50000
0.11,12111.59243,285.8151494,139.898265,48.7159173,50000
0.12,12121.39205,283.0970819,151.8928865,52.6678671,50000
0.13,12131.11024,280.4442242,163.7811662,56.54972065,50000
0.14,12140.72456,277.8630571,175.5717186,60.36779212,50000
0.15,12150.22618,275.3548896,187.2688678,64.12505224,50000
0.16,12159.60629,272.9210307,198.8769377,67.82447177,50000
0.17,12168.86801,270.558645,210.3966637,71.46632131,50000
0.18,12178.01943,268.2631807,221.8272943,75.04975302,50000
0.19,12187.04376,266.0387116,233.175548,78.57953913,50000
0.2,12195.93564,263.8853442,244.4447076,82.05786693,50000
0.21,12204.68972,261.8031849,255.6380557,85.48692366,50000
0.22,12213.32209,259.785881,266.752654,88.86439849,50000
0.23,12221.82443,257.8344406,277.7926537,92.19310656,50000
0.24,12230.19109,255.9490489,288.7614132,95.47528998,50000
0.25,12238.41958,254.12896,299.6613945,98.71254251,50000
0.26,12246.51071,252.3726609,310.4940802,101.9057833,50000
0.27,12254.47476,250.6764771,321.2581946,105.0540308,50000
0.28,12262.30363,249.0409386,331.9578276,108.1600006,50000
0.29,12269.99661,247.4648849,342.5949119,111.2249219,50000
0.3,12277.55299,245.9471555,353.1713801,114.2500237,50000
0.31,12284.9867,244.4852985,363.6841685,117.2332726,50000
0.32,12292.29617,243.0782288,374.1355013,120.1760883,50000
0.33,12299.47474,241.7253113,384.5293438,123.081027,50000
0.34,12306.52242,240.4253215,394.8673814,125.9491565,50000
0.35,12313.43922,239.1770351,405.1512999,128.7815446,50000
0.36,12320.22516,237.9792278,415.3827849,131.5792593,50000
0.37,12326.88025,236.8306753,425.563522,134.3433683,50000
0.38,12333.4045,235.7301531,435.6951968,137.0749395,50000
0.39,12339.79793,234.676437,445.7794951,139.7750407,50000
0.4,12346.07314,233.6687636,455.812429,142.4410845,50000
0.41,12352.23735,232.7061727,465.7924332,145.072044,50000
0.42,12358.27997,231.7870513,475.7259771,147.6720694,50000
0.43,12364.20188,230.9102066,485.6143578,150.2419781,50000
0.44,12370.00394,230.0744458,495.4588722,152.7825874,50000
0.45,12375.68703,229.2785763,505.260817,155.2947147,50000
0.46,12381.25203,228.5214052,515.0214893,157.7791774,50000
0.47,12386.69981,227.8017398,524.742186,160.2367928,50000
0.48,12392.03125,227.1183873,534.4242038,162.6683784,50000
0.49,12397.25173,226.4716335,544.065561,165.0726687,50000
0.5,12402.3706,225.8630697,553.6613804,167.4465594,50000
0.51,12407.38086,225.2889192,563.2186893,169.7945079,50000
0.52,12412.28389,224.7481492,572.7384296,172.1171059,50000
0.53,12417.08103,224.2397272,582.2215429,174.4149453,50000
0.54,12421.77367,223.7626206,591.6689711,176.6886179,50000
0.55,12426.36316,223.3157968,601.0816559,178.9387154,50000
0.56,12430.85086,222.898223,610.4605391,181.1658296,50000
0.57,12435.23813,222.5088668,619.8065625,183.3705524,50000
0.58,12439.52705,222.1475174,629.1194867,185.5527356,50000
0.59,12443.72338,221.8182808,638.392868,187.7083446,50000
0.6,12447.82512,221.5162103,647.6332736,189.841495,50000
0.61,12451.83381,221.2404717,656.8413601,191.9526001,50000
0.62,12455.75098,220.990231,666.017784,194.0420729,50000
0.63,12459.57817,220.7646538,675.1632021,196.1103266,50000
0.64,12463.31691,220.5629059,684.2782708,198.1577744,50000
0.65,12466.96874,220.3841533,693.3636467,200.1848295,50000
0.66,12470.53518,220.2275617,702.4199864,202.1919049,50000
0.67,12474.01776,220.0922969,711.4479466,204.1794138,50000
0.68,12477.41386,219.9838478,720.4428843,206.144545,50000
0.69,12480.72775,219.8972066,729.4089542,208.08984,50000
0.7,12483.96093,219.8316018,738.3467603,210.0156799,50000
0.71,12487.11479,219.7863977,747.2567927,211.9223766,50000
0.72,12490.19075,219.7609588,756.1395416,213.8102421,50000
0.73,12493.1902,219.7546492,764.9954974,215.6795882,50000
0.74,12496.11454,219.7668334,773.8251501,217.530727,50000
0.75,12498.96518,219.7968756,782.6289901,219.3639702,50000
0.76,12501.74352,219.8441401,791.4075075,221.1796299,50000
0.77,12504.4382,219.9161252,800.1566584,222.9753608,50000
0.78,12507.05751,220.0078022,808.8793818,224.75291,50000
0.79,12509.60543,220.1168952,817.5770823,226.5131251,50000
0.8,12512.08316,220.242894,826.2501801,228.2562771,50000
0.81,12514.49191,220.3852888,834.8990954,229.9826368,50000
0.82,12516.83288,220.5435693,843.5242483,231.6924752,50000
0.83,12519.10728,220.7172256,852.1260591,233.386063,50000
0.84,12521.31632,220.9057477,860.7049479,235.0636713,50000
0.85,12523.46119,221.1086254,869.2613349,236.7255709,50000
0.86,12525.5431,221.3253488,877.7956404,238.3720326,50000
0.87,12527.56326,221.5554078,886.3082844,240.0033273,50000
0.88,12529.52287,221.7982923,894.7996871,241.619726,50000
0.89,12531.42314,222.0534923,903.2702688,243.2214995,50000
0.9,12533.26527,222.3204978,911.7204497,244.8089187,50000
0.91,12535.05046,222.5987987,920.1506498,246.3822544,50000
0.92,12536.75957,222.8985197,928.5546969,247.9378724,50000
0.93,12538.40751,223.2119893,936.9374507,249.4786734,50000
0.94,12539.9974,223.5376959,945.299952,251.005296,50000
0.95,12541.53017,223.8752765,953.6425301,252.517957,50000
0.96,12543.00673,224.2243681,961.9655137,254.0168733,50000
0.97,12544.42801,224.5846079,970.2692321,255.5022619,50000
0.98,12545.79493,224.9556327,978.5540142,256.9743395,50000
0.99,12547.10842,225.3370797,986.820189,258.4333231,50000
1,12548.3694,225.7285858,995.0680855,259.8794296,50000
1.01,12549.5788,226.129788,1003.298033,261.3128758,50000
1.02,12550.73753,226.5403235,1011.51036,262.7338786,50000
1.03,12551.84652,226.9598292,1019.705396,264.1426549,50000
1.04,12552.90669,227.3879421,1027.883469,265.5394215,50000
1.05,12553.91897,227.8242992,1036.04491,266.9243953,50000
1.06,12554.88429,228.2685377,1044.190046,268.2977933,50000
1.07,12555.78378,228.7296336,1052.31206,269.6555161,50000
1.08,12556.63387,229.1999096,1060.41688,271.001161,50000
1.09,12557.43559,229.67895,1068.504872,272.3349692,50000
1.1,12558.18961,230.1665086,1076.576279,273.6571037,50000
1.11,12558.89661,230.6623391,1084.631339,274.9677274,50000
1.12,12559.55726,231.1661953,1092.670291,276.2670032,50000
1.13,12560.17225,231.6778309,1100.693376,277.555094,50000
1.14,12560.74224,232.1969998,1108.700834,278.8321629,50000
1.15,12561.26791,232.7234556,1116.692903,280.0983726,50000
1.16,12561.74995,233.256952,1124.669825,281.3538862,50000
1.17,12562.18902,233.797243,1132.631837,282.5988665,50000
1.18,12562.58581,234.3440822,1140.57918,283.8334766,50000
1.19,12562.94099,234.8972234,1148.512095,285.0578792,50000
1.2,12563.25523,235.4564203,1156.430819,286.2722374,50000
1.21,12563.52829,236.0217715,1164.335294,287.4765296,50000
1.22,12563.74758,236.5980278,1172.221407,288.6682441,50000
1.23,12563.92504,237.1806987,1180.093093,289.8498156,50000
1.24,12564.06118,237.7696066,1187.950534,291.0213702,50000
1.25,12564.15647,238.364574,1195.793908,292.183034,50000
1.26,12564.21143,238.9654233,1203.623395,293.3349332,50000
1.27,12564.22654,239.5719769,1211.439176,294.477194,50000
1.28,12564.20229,240.1840574,1219.241429,295.6099425,50000
1.29,12564.13919,240.801487,1227.030336,296.733305,50000
1.3,12564.03771,241.4240884,1234.806076,297.8474075,50000
1.31,12563.89837,242.0516838,1242.568829,298.9523763,50000
1.32,12563.72164,242.6840958,1250.318774,300.0483376,50000
1.33,12563.50803,243.3211468,1258.056092,301.1354174,50000
1.34,12563.25802,243.9626593,1265.780963,302.213742,50000
1.35,12562.97212,244.6084555,1273.493566,303.2834375,50000
1.36,12562.64962,245.2588356,1281.193516,304.3442769,50000
1.37,12562.28471,245.9161295,1288.878025,305.3945314,50000
1.38,12561.88373,246.5778358,1296.550023,306.4360463,50000
1.39,12561.44707,247.2438181,1304.209642,307.4689173,50000
1.4,12560.97511,247.9139399,1311.857013,308.49324,50000
1.41,12560.46825,248.5880649,1319.492266,309.5091103,50000
1.42,12559.92687,249.2660566,1327.115534,310.5166239,50000
1.43,12559.35137,249.9477786,1334.726947,311.5158764,50000
1.44,12558.74213,250.6330945,1342.326637,312.5069637,50000
1.45,12558.09956,251.3218679,1349.914734,313.4899814,50000
1.46,12557.42403,252.0139624,1357.49137,314.4650253,50000
1.47,12556.71594,252.7092416,1365.056676,315.4321911,50000
1.48,12555.97568,253.4075691,1372.610784,316.3915745,50000
1.49,12555.20364,254.1088084,1380.153824,317.3432713,50000
1.5,12554.40021,254.8128232,1387.685927,318.2873772,50000
1.51,12553.56277,255.5204124,1395.206073,319.2232538,50000
1.52,12552.68431,256.233731,1402.711572,320.1491987,50000
1.53,12551.77413,256.9498805,1410.205955,321.0674752,50000
1.54,12550.83257,257.6687415,1417.689334,321.9781657,50000
1.55,12549.85997,258.3901948,1425.161817,322.8813523,50000
1.56,12548.85665,259.1141212,1432.623516,323.7771175,50000
1.57,12547.82296,259.8404012,1440.07454,324.6655434,50000
1.58,12546.75923,260.5689157,1447.515,325.5467124,50000
1.59,12545.66579,261.2995454,1454.945005,326.4207069,50000
1.6,12544.54298,262.0321709,1462.364665,327.287609,50000
1.61,12543.39114,262.7666729,1469.774092,328.147501,50000
1.62,12542.2106,263.5029322,1477.173394,329.0004654,50000
1.63,12541.00169,264.2408295,1484.562681,329.8465843,50000
1.64,12539.76476,264.9802455,1491.942065,330.68594,50000
1.65,12538.50013,265.7210609,1499.311655,331.5186149,50000
1.66,12537.20814,266.4631565,1506.671561,332.3446912,50000
1.67,12535.88913,267.2064128,1514.021893,333.1642512,50000
1.68,12534.54344,267.9507107,1521.362762,333.9773773,50000
1.69,12533.17139,268.6959308,1528.694276,334.7841517,50000
1.7,12531.77332,269.4419539,1536.016548,335.5846567,50000
1.71,12530.34958,270.1886606,1543.329686,336.3789746,50000
1.72,12528.90048,270.9359317,1550.633801,337.1671877,50000
1.73,12527.42638,271.6836479,1557.929002,337.9493783,50000
1.74,12525.9276,272.43169,1565.215401,338.7256287,50000
1.75,12524.40448,273.1799385,1572.493106,339.4960211,50000
1.76,12522.85735,273.9282742,1579.762229,340.260638,50000
1.77,12521.28052,274.6786499,1587.020953,341.0182829,50000
1.78,12519.66729,275.4333585,1594.267148,341.7675498,50000
1.79,12518.02896,276.1885232,1601.504416,342.5108395,50000
1.8,12516.36576,276.9440513,1608.732841,343.2482179,50000
1.81,12514.67796,277.6998502,1615.952508,343.9797508,50000
1.82,12512.96582,278.4558273,1623.163504,344.7055041,50000
1.83,12511.2296,279.21189,1630.365913,345.4255435,50000
1.84,12509.46955,279.9679456,1637.559821,346.139935,50000
1.85,12507.68592,280.7239016,1644.745313,346.8487443,50000
1.86,12505.87899,281.4796653,1651.922474,347.5520373,50000
1.87,12504.049,282.2351441,1659.09139,348.2498799,50000
1.88,12502.19621,282.9902455,1666.252146,348.9423377,50000
1.89,12500.32089,283.7448767,1673.404827,349.6294768,50000
1.9,12498.42328,284.4989453,1680.549518,350.3113628,50000
1.91,12496.50365,285.2523585,1687.686306,350.9880618,50000
1.92,12494.56225,286.0050237,1694.815275,351.6596393,50000
1.93,12492.59934,286.7568484,1701.93651,352.3261615,50000
1.94,12490.61518,287.5077399,1709.050097,352.9876939,50000
1.95,12488.61003,288.2576057,1716.156121,353.6443025,50000
1.96,12486.58414,289.006353,1723.254668,354.2960532,50000
1.97,12484.53777,289.7538893,1730.345822,354.9430117,50000
1.98,12482.47118,290.500122,1737.42967,355.5852438,50000
1.99,12480.38463,291.2449585,1744.506295,356.2228155,50000
2,12478.27837,291.9883061,1751.575785,356.8557925,50000
2.01,12476.15266,292.7300722,1758.638223,357.4842407,50000
2.02,12474.00777,293.4701643,1765.693696,358.1082259,50000
2.03,12471.8375,294.2114684,1772.739846,358.726139,50000
2.04,12469.63916,294.9552641,1779.775635,359.3372744,50000
2.05,12467.42066,295.6979146,1786.804053,359.9436907,50000
2.06,12465.1822,296.4393565,1793.825161,360.5454373,50000
2.07,12462.92396,297.179527,1800.83902,361.1425633,50000
2.08,12460.64614,297.9183628,1807.845692,361.7351179,50000
2.09,12458.34894,298.6558008,1814.845237,362.3231506,50000
2.1,12456.03255,299.391778,1821.837717,362.9067104,50000
2.11,12453.69716,300.1262311,1828.823192,363.4858467,50000
2.12,12451.34296,300.8590972,1835.801725,364.0606086,50000
2.13,12448.97016,301.5903131,1842.773375,364.6310454,50000
2.14,12446.57894,302.3198156,1849.738205,365.1972065,50000
2.15,12444.1695,303.0475417,1856.696275,365.7591409,50000
2.16,12441.74204,303.7734283,1863.647646,366.316898,50000
2.17,12439.29674,304.4974122,1870.59238,366.8705269,50000
2.18,12436.83379,305.2194304,1877.530537,367.4200771,50000
2.19,12434.35341,305.9394196,1884.462179,367.9655976,50000
2.2,12431.85577,306.6573169,1891.387367,368.5071377,50000
2.21,12429.34107,307.3730591,1898.306162,369.0447467,50000
2.22,12426.80951,308.0865831,1905.218626,369.5784739,50000
2.23,12424.26128,308.7978257,1912.124818,370.1083684,50000
2.24,12421.69657,309.5067239,1919.024801,370.6344795,50000
2.25,12419.11558,310.2132146,1925.918636,371.1568564,50000
2.26,12416.5185,310.9172346,1932.806383,371.6755485,50000
2.27,12413.90552,311.6187209,1939.688103,372.1906049,50000
2.28,12411.27685,312.3176102,1946.563859,372.7020749,50000
2.29,12408.62775,313.0169792,1953.431481,373.2084184,50000
2.3,12405.95835,313.7168169,1960.290992,373.709658,50000
2.31,12403.27275,314.4145603,1967.14423,374.2071088,50000
2.32,12400.5711,315.1101714,1973.991237,374.7008071,50000
2.33,12397.85356,315.8036123,1980.832058,375.1907895,50000
2.34,12395.12028,316.4948452,1987.666736,375.6770924,50000
2.35,12392.37142,317.183832,1994.495313,376.1597524,50000
2.36,12389.60713,317.870535,2001.317833,376.6388058,50000
2.37,12386.82756,318.5549163,2008.134339,377.1142892,50000
2.38,12384.03287,319.2369378,2014.944875,377.586239,50000
2.39,12381.22322,319.9165618,2021.749483,378.0546918,50000
2.4,12378.39876,320.5937503,2028.548206,378.519684,50000
2.41,12375.55963,321.2684655,2035.341089,378.9812521,50000
2.42,12372.70601,321.9406694,2042.128174,379.4394326,50000
2.43,12369.83804,322.6103241,2048.909504,379.8942619,50000
2.44,12366.95587,323.2773917,2055.685122,380.3457766,50000
2.45,12364.05967,323.9418344,2062.455073,380.794013,50000
2.46,12361.14957,324.6036143,2069.219398,381.2390078,50000
2.47,12358.22575,325.2626933,2075.978142,381.6807974,50000
2.48,12355.28836,325.9190337,2082.731347,382.1194183,50000
2.49,12352.33754,326.5725976,2089.479057,382.5549068,50000
2.5,12349.37345,327.2233469,2096.221315,382.9872996,50000
2.51,12346.39625,327.871244,2102.958164,383.4166332,50000
2.52,12343.4061,328.5162507,2109.689647,383.8429439,50000
2.53,12340.40314,329.1583293,2116.415807,384.2662682,50000
2.54,12337.38753,329.7974419,2123.136689,384.6866427,50000
2.55,12334.35591,330.4363212,2129.850674,385.1028546,50000
2.56,12331.30947,331.0741286,2136.558287,385.5153012,50000
2.57,12328.25018,331.7093707,2143.260441,385.9246755,50000
2.58,12325.1782,332.3420282,2149.95717,386.3310055,50000
2.59,12322.09363,332.9720819,2156.648505,386.7343193,50000
2.6,12318.99662,333.5995125,2163.334479,387.1346449,50000
2.61,12315.8873,334.2243009,2170.015123,387.5320104,50000
2.62,12312.76579,334.8464278,2176.690469,387.9264438,50000
2.63,12309.63223,335.465874,2183.36055,388.3179732,50000
2.64,12306.48675,336.0826203,2190.025396,388.7066268,50000
2.65,12303.32948,336.6966475,2196.685042,389.0924324,50000
2.66,12300.16055,337.3079363,2203.339518,389.4754182,50000
2.67,12296.98009,337.9164675,2209.988856,389.8556122,50000
2.68,12293.78823,338.522222,2216.633089,390.2330426,50000
2.69,12290.58511,339.1251804,2223.272248,390.6077373,50000
2.7,12287.37084,339.7253235,2229.906366,390.9797244,50000
2.71,12284.14557,340.3226322,2236.535475,391.3490321,50000
2.72,12280.90943,340.9170872,2243.159606,391.7156882,50000
2.73,12277.66254,341.5086693,2249.778791,392.0797209,50000
2.74,12274.40504,342.0973593,2256.393064,392.4411583,50000
2.75,12271.13706,342.6831379,2263.002455,392.8000284,50000
2.76,12267.85872,343.265986,2269.606997,393.1563593,50000
2.77,12264.57016,343.8458843,2276.206721,393.510179,50000
2.78,12261.27152,344.4228135,2282.80166,393.8615156,50000
2.79,12257.96291,344.9967545,2289.391846,394.2103972,50000
2.8,12254.64448,345.5676881,2295.977311,394.5568517,50000
2.81,12251.31055,346.13947,2302.556043,394.899235,50000
2.82,12247.96449,346.709921,2309.129212,395.2385073,50000
2.83,12244.60839,347.2777156,2315.697541,395.5752603,50000
2.84,12241.24236,347.8428447,2322.261055,395.9095179,50000
2.85,12237.86651,348.4052991,2328.819783,396.2413037,50000
2.86,12234.48096,348.9650695,2335.37375,396.5706415,50000
2.87,12231.08582,349.5221467,2341.922983,396.8975549,50000
2.88,12227.68122,350.0765216,2348.467509,397.2220679,50000
2.89,12224.26727,350.6281849,2355.007354,397.544204,50000
2.9,12220.84408,351.1771274,2361.542546,397.863987,50000
2.91,12217.41177,351.72334,2368.073112,398.1814407,50000
2.92,12213.97045,352.2668134,2374.599077,398.4965888,50000
2.93,12210.52025,352.8075384,2381.120468,398.809455,50000
2.94,12207.06127,353.3455058,2387.637314,399.1200631,50000
2.95,12203.59363,353.8807064,2394.149639,399.4284368,50000
2.96,12200.11746,354.413131,2400.657471,399.7345998,50000
2.97,12196.63285,354.9427705,2407.160837,400.0385759,50000
2.98,12193.13994,355.4696155,2413.659763,400.3403888,50000
2.99,12189.63884,355.9936569,2420.154276,400.6400623,50000
3,12186.12965,356.5148854,2426.644403,400.93762,50000
3.01,12182.6125,357.033292,2433.13017,401.2330857,50000
3.02,12179.08751,357.5488673,2439.611605,401.5264832,50000
3.03,12175.55479,358.0616022,2446.088734,401.8178362,50000
3.04,12172.01445,358.5714875,2452.561584,402.1071685,50000
3.05,12168.46661,359.0785139,2459.030181,402.3945036,50000
3.06,12164.91139,359.5826722,2465.494552,402.6798655,50000
3.07,12161.3489,360.0839534,2471.954725,402.9632778,50000
3.08,12157.77926,360.582348,2478.410725,403.2447643,50000
3.09,12154.20259,361.077847,2484.86258,403.5243487,50000
3.1,12150.61899,361.5704412,2491.310316,403.8020548,50000
3.11,12147.02859,362.0601213,2497.75396,404.0779062,50000
3.12,12143.4315,362.5468781,2504.193538,404.3519267,50000
3.13,12139.82784,363.0307024,2510.629078,404.6241401,50000
3.14,12136.21773,363.511585,2517.060607,404.8945701,50000
3.15,12132.60127,363.9895168,2523.48815,405.1632404,50000
3.16,12128.97859,364.4644885,2529.911735,405.4301747,50000
3.17,12125.3498,364.9364908,2536.331388,405.6953969,50000
3.18,12121.71501,365.4055147,2542.747137,405.9589306,50000
3.19,12118.07435,365.8715509,2549.159007,406.2207995,50000
3.2,12114.42063,366.3383253,2555.564593,406.4790043,50000
3.21,12110.75695,366.8043052,2561.964914,406.734394,50000
3.22,12107.08688,367.2677061,2568.361153,406.9879538,50000
3.23,12103.41053,367.7285295,2574.75333,407.2397017,50000
3.24,12099.72798,368.186777,2581.141464,407.4896555,50000
3.25,12096.03934,368.64245,2587.525575,407.7378334,50000
3.26,12092.3447,369.09555,2593.905684,407.984253,50000
3.27,12088.64415,369.5460786,2600.281809,408.2289325,50000
3.28,12084.93778,369.9940373,2606.65397,408.4718898,50000
3.29,12081.2257,370.4394276,2613.022188,408.7131427,50000
3.3,12077.50799,370.8822509,2619.386482,408.9527092,50000
3.31,12073.78476,371.3225088,2625.746872,409.1906072,50000
3.32,12070.05609,371.7602028,2632.103377,409.4268548,50000
3.33,12066.32209,372.1953344,2638.456017,409.6614697,50000
3.34,12062.58284,372.6279051,2644.804813,409.89447,50000
3.35,12058.83845,373.0579164,2651.149783,410.1258736,50000
