Time (h),miR-200,ZEB mRNA ,miR-34,SNAIL mRNA,Signal driving SNAIL
0,5000,600,0,0,50000
0.01,5005.490695,595.4603429,13.41756865,4.894390841,50000
0.02,5011.105056,590.9676916,26.67964781,9.68444581,50000
0.03,5016.83923,586.5244709,39.78896308,14.37217214,50000
0.04,5022.682179,582.136984,52.75351711,18.96340537,50000
0.05,5028.624764,577.8098192,65.57943701,23.46253098,50000
0.06,5034.661297,573.5458041,78.27052661,27.87227074,50000
0.07,5040.77805,569.3511755,90.83555394,32.19882873,50000
0.08,5046.974159,565.2244838,103.2741356,36.44175394,50000
0.09,5053.236922,561.1707702,115.5940348,40.60647138,50000
0.1,5059.558836,557.1940023,127.800341,44.69663859,50000
0.11,5065.931541,553.2976978,139.898265,48.7159173,50000
0.12,5072.346806,549.4851968,151.8928865,52.6678671,50000
0.13,5078.804151,545.7488373,163.7811662,56.54972065,50000
0.14,5085.291968,542.0967493,175.5717186,60.36779212,50000
0.15,5091.802743,538.5312491,187.2688678,64.12505224,50000
0.16,5098.328966,535.0546527,198.8769377,67.82447177,50000
0.17,5104.867785,531.6643725,210.3966637,71.46632131,50000
0.18,5111.418278,528.3557897,221.8272943,75.04975302,50000
0.19,5117.969824,525.1344922,233.175548,78.57953913,50000
0.2,5124.516264,522.0013733,244.4447076,82.05786693,50000
0.21,5131.051438,518.9573261,255.6380557,85.48692366,50000
0.22,5137.579941,515.9949181,266.752654,88.86439849,50000
0.23,5144.094111,513.1162048,277.7926537,92.19310656,50000
0.24,5150.587659,510.322181,288.7614132,95.47528998,50000
0.25,5157.055843,507.6126412,299.6613945,98.71254251,50000
0.26,5163.496167,504.9861953,310.4940802,101.9057833,50000
0.27,5169.912461,502.4381142,321.2581946,105.0540308,50000
0.28,5176.296249,499.9701632,331.9578276,108.1600006,50000
0.29,5182.644006,497.5814966,342.5949119,111.2249219,50000
0.3,5188.952203,495.2712683,353.1713801,114.2500237,50000
0.31,5195.232051,493.0344848,363.6841685,117.2332726,50000
0.32,5201.479161,490.8705423,374.1355013,120.1760883,50000
0.33,5207.684012,488.7802824,384.5293438,123.081027,50000
0.34,5213.843804,486.7626541,394.8673814,125.9491565,50000
0.35,5219.955739,484.8166066,405.1512999,128.7815446,50000
0.36,5226.017018,482.941089,415.3827849,131.5792593,50000
0.37,5232.024842,481.1350504,425.563522,134.3433683,50000
0.38,5237.976412,479.3974399,435.6951968,137.0749395,50000
0.39,5243.868929,477.7272068,445.7794951,139.7750407,50000
0.4,5249.71598,476.1205818,455.812429,142.4410845,50000
0.41,5255.524155,474.5749562,465.7924332,145.072044,50000
0.42,5261.276838,473.0915715,475.7259771,147.6720694,50000
0.43,5266.972354,471.6691904,485.6143578,150.2419781,50000
0.44,5272.609026,470.3065759,495.4588722,152.7825874,50000
0.45,5278.185179,469.0024908,505.260817,155.2947147,50000
0.46,5283.699136,467.755698,515.0214893,157.7791774,50000
0.47,5289.14922,466.5649604,524.742186,160.2367928,50000
0.48,5294.533757,465.4290407,534.4242038,162.6683784,50000
0.49,5299.860095,464.3465648,544.065561,165.0726687,50000
0.5,5305.143557,463.3160372,553.6613804,167.4465594,50000
0.51,5310.366689,462.3364605,563.2186893,169.7945079,50000
0.52,5315.528794,461.4065827,572.7384296,172.1171059,50000
0.53,5320.629173,460.5251519,582.2215429,174.4149453,50000
0.54,5325.667128,459.690916,591.6689711,176.6886179,50000
0.55,5330.641959,458.9026231,601.0816559,178.9387154,50000
0.56,5335.552969,458.1590211,610.4605391,181.1658296,50000
0.57,5340.399459,457.4588581,619.8065625,183.3705524,50000
0.58,5345.183508,456.8012795,629.1194867,185.5527356,50000
0.59,5349.921782,456.1875183,638.392868,187.7083446,50000
0.6,5354.600356,455.6144297,647.6332736,189.841495,50000
0.61,5359.219201,455.0808577,656.8413601,191.9526001,50000
0.62,5363.778291,454.5856463,666.017784,194.0420729,50000
0.63,5368.277597,454.1276394,675.1632021,196.1103266,50000
0.64,5372.71709,453.705681,684.2782708,198.1577744,50000
0.65,5377.096744,453.318615,693.3636467,200.1848295,50000
0.66,5381.41653,452.9652855,702.4199864,202.1919049,50000
0.67,5385.67642,452.6445364,711.4479466,204.1794138,50000
0.68,5389.886316,452.3609623,720.4428843,206.144545,50000
0.69,5394.039636,452.1096113,729.4089542,208.08984,50000
0.7,5398.13645,451.8893846,738.3467603,210.0156799,50000
0.71,5402.177042,451.6993065,747.2567927,211.9223766,50000
0.72,5406.161696,451.5384017,756.1395416,213.8102421,50000
0.73,5410.090695,451.4056946,764.9954974,215.6795882,50000
0.74,5413.964324,451.3002097,773.8251501,217.530727,50000
0.75,5417.782865,451.2209715,782.6289901,219.3639702,50000
0.76,5421.546604,451.1670046,791.4075075,221.1796299,50000
0.77,5425.261058,451.1502356,800.1553152,222.9745782,50000
0.78,5428.923507,451.162285,808.8762761,224.751101,50000
0.79,5432.533139,451.1994766,817.5721109,226.5102303,50000
0.8,5436.090297,451.2609782,826.2432443,228.2522397,50000
0.81,5439.595321,451.3459581,834.8901011,229.9774028,50000
0.82,5443.048554,451.4535842,843.5131063,231.6859933,50000
0.83,5446.450339,451.5830247,852.1126845,233.3782848,50000
0.84,5449.801017,451.7334476,860.6892607,235.0545511,50000
0.85,5453.100929,451.904021,869.2432596,236.7150657,50000
0.86,5456.350419,452.0939129,877.7751061,238.3601023,50000
0.87,5459.549828,452.3022914,886.285225,239.9899345,50000
0.88,5462.699499,452.5283246,894.7740411,241.6048361,50000
0.89,5465.799772,452.7711805,903.2419792,243.2050806,50000
0.9,5468.850991,453.0300272,911.6894642,244.7909418,50000
0.91,5471.853497,453.3040328,920.1169209,246.3626931,50000
0.92,5474.807632,453.5923653,928.524774,247.9206084,50000
0.93,5477.713738,453.8941929,936.9134485,249.4649613,50000
0.94,5480.572575,454.2117736,945.2819983,250.9952109,50000
0.95,5483.387213,454.5644762,953.6218871,252.5063066,50000
0.96,5486.155428,454.9324727,961.9419665,254.003529,50000
0.97,5488.877594,455.3151595,970.2425601,255.4870914,50000
0.98,5491.554082,455.7119331,978.5239912,256.9572073,50000
0.99,5494.185266,456.12219,986.7865836,258.4140901,50000
1,5496.771519,456.5453264,995.0306606,259.8579533,50000
1.01,5499.313214,456.9807389,1003.256546,261.2890104,50000
1.02,5501.810723,457.4278238,1011.464563,262.7074749,50000
1.03,5504.264419,457.8859777,1019.655035,264.1135601,50000
1.04,5506.674676,458.3545969,1027.828286,265.5074796,50000
1.05,5509.041865,458.8330779,1035.984639,266.8894468,50000
1.06,5511.36636,459.3208171,1044.124418,268.2596753,50000
1.07,5513.648534,459.8172109,1052.247946,269.6183783,50000
1.08,5515.88876,460.3216557,1060.355547,270.9657695,50000
1.09,5518.08741,460.833548,1068.447545,272.3020622,50000
1.1,5520.244857,461.3522842,1076.524262,273.62747,50000
1.11,5522.361474,461.8772607,1084.586023,274.9422063,50000
1.12,5524.437294,462.4182338,1092.628285,276.24354,50000
1.13,5526.47252,462.9797084,1100.648973,277.5302326,50000
1.14,5528.467901,463.54968,1108.653765,278.8057381,50000
1.15,5530.423803,464.1277576,1116.642884,280.0702094,50000
1.16,5532.340591,464.7135504,1124.616554,281.3237996,50000
1.17,5534.218632,465.3066675,1132.574998,282.5666617,50000
1.18,5536.058291,465.9067178,1140.518441,283.7989487,50000
1.19,5537.859935,466.5133104,1148.447106,285.0208137,50000
1.2,5539.623928,467.1260545,1156.361217,286.2324096,50000
1.21,5541.350637,467.744559,1164.260996,287.4338895,50000
1.22,5543.040428,468.3684331,1172.146669,288.6254064,50000
1.23,5544.693666,468.9972858,1180.018458,289.8071134,50000
1.24,5546.310718,469.6307261,1187.876588,290.9791635,50000
1.25,5547.891949,470.2683632,1195.721281,292.1417097,50000
1.26,5549.437725,470.909806,1203.552762,293.2949049,50000
1.27,5550.948413,471.5546637,1211.371254,294.4389024,50000
1.28,5552.424377,472.2025454,1219.176981,295.573855,50000
1.29,5553.865984,472.85306,1226.970166,296.6999158,50000
1.3,5555.270228,473.5183682,1234.745054,297.8135533,50000
1.31,5556.639208,474.1916326,1242.504938,298.916813,50000
1.32,5557.974163,474.8692028,1250.251596,300.0108045,50000
1.33,5559.275421,475.5508345,1257.985182,301.0956381,50000
1.34,5560.543309,476.2362828,1265.705849,302.1714236,50000
1.35,5561.778152,476.9253032,1273.413751,303.2382713,50000
1.36,5562.980277,477.6176512,1281.109043,304.2962912,50000
1.37,5564.150011,478.3130819,1288.791878,305.3455934,50000
1.38,5565.287681,479.0113509,1296.46241,306.3862879,50000
1.39,5566.393612,479.7122134,1304.120794,307.4184848,50000
1.4,5567.468133,480.4154249,1311.767182,308.4422942,50000
1.41,5568.511568,481.1207408,1319.40173,309.4578263,50000
1.42,5569.524245,481.8279164,1327.024591,310.4651909,50000
1.43,5570.50649,482.536707,1334.635918,311.4644983,50000
1.44,5571.45863,483.2468682,1342.235867,312.4558585,50000
1.45,5572.380991,483.9581551,1349.82459,313.4393816,50000
1.46,5573.273901,484.6703233,1357.402242,314.4151776,50000
1.47,5574.137045,485.3840098,1364.968618,315.3831286,50000
1.48,5574.964592,486.1074668,1372.520413,316.3411465,50000
1.49,5575.76245,486.8327476,1380.060915,317.291334,50000
1.5,5576.530883,487.5596969,1387.590243,318.2337779,50000
1.51,5577.270152,488.2881593,1395.108514,319.1685653,50000
1.52,5577.980518,489.0179795,1402.615846,320.0957831,50000
1.53,5578.662244,489.7490022,1410.112357,321.0155183,50000
1.54,5579.315591,490.4810721,1417.598163,321.9278579,50000
1.55,5579.940822,491.2140338,1425.073383,322.8328888,50000
1.56,5580.538197,491.947732,1432.538135,323.7306981,50000
1.57,5581.107979,492.6820114,1439.992535,324.6213726,50000
1.58,5581.65043,493.4167167,1447.436701,325.5049994,50000
1.59,5582.165812,494.1516926,1454.870751,326.3816655,50000
1.6,5582.654386,494.8867837,1462.294803,327.2514578,50000
1.61,5583.116413,495.6218347,1469.708974,328.1144633,50000
1.62,5583.552157,496.3566903,1477.113382,328.9707689,50000
1.63,5583.961879,497.0911952,1484.508143,329.8204617,50000
1.64,5584.34584,497.8251941,1491.893377,330.6636286,50000
1.65,5584.702618,498.5623922,1499.266795,331.4988029,50000
1.66,5585.031469,499.3049453,1506.627075,332.3251418,50000
1.67,5585.334869,500.0476158,1513.977501,333.1447772,50000
1.68,5585.613064,500.7902877,1521.318166,333.9577804,50000
1.69,5585.866298,501.5328448,1528.649163,334.7642226,50000
1.7,5586.094816,502.2751712,1535.970585,335.564175,50000
1.71,5586.298863,503.0171509,1543.282526,336.3577086,50000
1.72,5586.478683,503.7586678,1550.585078,337.1448947,50000
1.73,5586.634521,504.4996059,1557.878335,337.9258044,50000
1.74,5586.766622,505.2398491,1565.162389,338.7005088,50000
1.75,5586.875231,505.9792815,1572.437334,339.4690792,50000
1.76,5586.960591,506.7177869,1579.703263,340.2315868,50000
1.77,5587.022949,507.4552494,1586.960269,340.9881026,50000
1.78,5587.062548,508.1915528,1594.208445,341.7386978,50000
1.79,5587.079633,508.9265813,1601.447884,342.4834437,50000
1.8,5587.074448,509.6602187,1608.67868,343.2224113,50000
1.81,5587.04724,510.392349,1615.900925,343.9556718,50000
1.82,5586.998251,511.1228561,1623.114712,344.6832964,50000
1.83,5586.927728,511.8516242,1630.320136,345.4053563,50000
1.84,5586.835914,512.578537,1637.517288,346.1219226,50000
1.85,5586.723055,513.3034785,1644.706261,346.8330665,50000
1.86,5586.589394,514.0263328,1651.88715,347.5388591,50000
1.87,5586.435177,514.7469839,1659.060047,348.2393717,50000
1.88,5586.260649,515.4653155,1666.225045,348.9346753,50000
1.89,5586.066053,516.1812118,1673.382238,349.6248412,50000
1.9,5585.851636,516.8945567,1680.531717,350.3099404,50000
1.91,5585.616562,517.6063667,1687.673036,350.9896771,50000
1.92,5585.352031,518.3260243,1694.801745,351.6610431,50000
1.93,5585.067167,519.0440887,1701.922395,352.3271325,50000
1.94,5584.762171,519.7604916,1709.035058,352.988001,50000
1.95,5584.437241,520.4751646,1716.139803,353.6437043,50000
1.96,5584.092576,521.1880393,1723.236702,354.2942982,50000
1.97,5583.728377,521.8990474,1730.325823,354.9398383,50000
1.98,5583.344842,522.6081203,1737.407239,355.5803803,50000
1.99,5582.94217,523.3151899,1744.481018,356.2159801,50000
2,5582.520561,524.0201876,1751.547232,356.8466933,50000
2.01,5582.080214,524.7230451,1758.60595,357.4725756,50000
2.02,5581.621329,525.423694,1765.657243,358.0936827,50000
2.03,5581.144104,526.1220659,1772.701181,358.7100704,50000
2.04,5580.64874,526.8180925,1779.737835,359.3217944,50000
2.05,5580.135435,527.5117053,1786.767275,359.9289103,50000
2.06,5579.604389,528.202836,1793.789571,360.5314739,50000
2.07,5579.0558,528.8914161,1800.804793,361.129541,50000
2.08,5578.489869,529.5773774,1807.813012,361.7231672,50000
2.09,5577.906795,530.2606514,1814.814299,362.3124083,50000
2.1,5577.306776,530.9411697,1821.808723,362.8973199,50000
2.11,5576.690013,531.6188639,1828.796354,363.4779578,50000
2.12,5576.056704,532.2936657,1835.777264,364.0543777,50000
2.13,5575.40705,532.9655067,1842.751522,364.6266353,50000
2.14,5574.741248,533.6343185,1849.719199,365.1947864,50000
2.15,5574.059499,534.3000327,1856.680366,365.7588866,50000
2.16,5573.362001,534.962581,1863.635091,366.3189917,50000
2.17,5572.648955,535.6218948,1870.583446,366.8751573,50000
2.18,5571.91246,536.2852481,1877.521789,367.424821,50000
2.19,5571.157613,536.9481325,1884.452434,367.9696217,50000
2.2,5570.38662,537.6086613,1891.376372,368.5102637,50000
2.21,5569.599636,538.2668048,1898.293653,369.0467887,50000
2.22,5568.796819,538.9225331,1905.204328,369.5792389,50000
2.23,5567.978326,539.5758165,1912.108449,370.1076561,50000
2.24,5567.144313,540.2266251,1919.006065,370.6320823,50000
2.25,5566.294937,540.874929,1925.897228,371.1525595,50000
2.26,5565.430355,541.5206986,1932.781988,371.6691296,50000
2.27,5564.550723,542.163904,1939.660396,372.1818347,50000
2.28,5563.656199,542.8045154,1946.532504,372.6907166,50000
2.29,5562.746939,543.4425029,1953.398361,373.1958174,50000
2.3,5561.8231,544.0778367,1960.258019,373.6971789,50000
2.31,5560.884838,544.7104871,1967.111529,374.1948432,50000
2.32,5559.932311,545.3404242,1973.958941,374.6888522,50000
2.33,5558.965675,545.9676183,1980.800306,375.1792478,50000
2.34,5557.985087,546.5920394,1987.635675,375.6660721,50000
2.35,5556.990703,547.2136578,1994.465099,376.149367,50000
2.36,5555.982681,547.8324437,2001.288628,376.6291744,50000
2.37,5554.961177,548.4483673,2008.106314,377.1055364,50000
2.38,5553.926348,549.0613987,2014.918207,377.5784948,50000
2.39,5552.87835,549.6715082,2021.724358,378.0480916,50000
2.4,5551.817341,550.2786659,2028.524818,378.5143689,50000
2.41,5550.743477,550.8828421,2035.319638,378.9773685,50000
2.42,5549.656915,551.4840068,2042.108868,379.4371324,50000
2.43,5548.557812,552.0821303,2048.89256,379.8937026,50000
2.44,5547.442778,552.6797021,2055.669183,380.3459587,50000
2.45,5546.310978,553.2773977,2062.438346,380.793617,50000
2.46,5545.166232,553.8725838,2069.201733,381.237921,50000
2.47,5544.008666,554.4652528,2075.959381,381.6789021,50000
2.48,5542.838405,555.0553975,2082.711327,382.1165921,50000
2.49,5541.655575,555.6430102,2089.457607,382.5510227,50000
2.5,5540.4603,556.2280835,2096.198259,382.9822254,50000
2.51,5539.252707,556.8106101,2102.933318,383.4102319,50000
2.52,5538.032921,557.3905823,2109.662823,383.8350739,50000
2.53,5536.801066,557.9679928,2116.386809,384.256783,50000
2.54,5535.557268,558.5428341,2123.105313,384.6753908,50000
2.55,5534.301652,559.1150987,2129.818373,385.0909291,50000
2.56,5533.034345,559.6847792,2136.526025,385.5034294,50000
2.57,5531.75547,560.2518681,2143.228305,385.9129234,50000
2.58,5530.465153,560.8163579,2149.925252,386.3194428,50000
2.59,5529.16352,561.3782412,2156.6169,386.7230192,50000
2.6,5527.850696,561.9375106,2163.303288,387.1236842,50000
2.61,5526.526806,562.4941585,2169.984452,387.5214695,50000
2.62,5525.191975,563.0481776,2176.660429,387.9164067,50000
2.63,5523.846329,563.5995603,2183.331255,388.3085276,50000
2.64,5522.489993,564.1482991,2189.996968,388.6978636,50000
2.65,5521.123092,564.6943867,2196.657603,389.0844466,50000
2.66,5519.745752,565.2378156,2203.313199,389.4683081,50000
2.67,5518.358098,565.7785782,2209.963792,389.8494798,50000
2.68,5516.960256,566.3166673,2216.609418,390.2279933,50000
2.69,5515.552349,566.8520751,2223.250114,390.6038802,50000
2.7,5514.133494,567.3851981,2229.885636,390.9769418,50000
2.71,5512.699177,567.9178809,2236.514729,391.3461519,50000
2.72,5511.254435,568.4481542,2243.138797,391.7126624,50000
2.73,5509.799369,568.9760214,2249.75787,392.0764989,50000
2.74,5508.334075,569.5014856,2256.371977,392.437687,50000
2.75,5506.858653,570.0245502,2262.981148,392.7962521,50000
2.76,5505.373201,570.5452182,2269.585412,393.1522199,50000
2.77,5503.877817,571.0634931,2276.184798,393.5056158,50000
2.78,5502.3726,571.579378,2282.779336,393.8564655,50000
2.79,5500.857649,572.0928761,2289.369055,394.2047943,50000
2.8,5499.333061,572.6039908,2295.953983,394.5506279,50000
2.81,5497.798936,573.1127252,2302.534152,394.8939918,50000
2.82,5496.255372,573.6190827,2309.109589,395.2349115,50000
2.83,5494.702468,574.1230664,2315.680325,395.5734126,50000
2.84,5493.140321,574.6246795,2322.246388,395.9095206,50000
2.85,5491.569031,575.1239254,2328.807808,396.2432611,50000
2.86,5489.988695,575.6208073,2335.364614,396.5746595,50000
2.87,5488.399414,576.1153283,2341.916835,396.9037414,50000
2.88,5486.801284,576.6074919,2348.464502,397.2305323,50000
2.89,5485.194404,577.0973011,2355.007643,397.5550578,50000
2.9,5483.578873,577.5847593,2361.546287,397.8773435,50000
2.91,5481.95479,578.0698696,2368.080464,398.1974148,50000
2.92,5480.322253,578.5526354,2374.610203,398.5152973,50000
2.93,5478.68136,579.0330599,2381.135534,398.8310165,50000
2.94,5477.032209,579.5111462,2387.656486,399.1445979,50000
2.95,5475.374901,579.9868977,2394.173087,399.4560672,50000
2.96,5473.709532,580.4603176,2400.685369,399.7654497,50000
2.97,5472.028443,580.9330398,2407.189128,400.069494,50000
2.98,5470.337615,581.4038311,2413.687603,400.37071,50000
2.99,5468.638481,581.8724141,2420.18155,400.6696877,50000
3,5466.931132,582.3387942,2426.670994,400.9664485,50000
3.01,5465.215654,582.8029767,2433.155959,401.2610134,50000
3.02,5463.492136,583.264967,2439.636468,401.5534038,50000
3.03,5461.760667,583.7247704,2446.112545,401.843641,50000
3.04,5460.021334,584.1823924,2452.584213,402.131746,50000
3.05,5458.274227,584.6378384,2459.051498,402.4177403,50000
3.06,5456.519433,585.0911136,2465.514421,402.7016451,50000
3.07,5454.757041,585.5422236,2471.973008,402.9834815,50000
3.08,5452.987139,585.9911735,2478.427282,403.2632708,50000
3.09,5451.209816,586.437969,2484.877267,403.5410344,50000
3.1,5449.425159,586.8826152,2491.322987,403.8167933,50000
3.11,5447.633258,587.3251177,2497.764464,404.0905689,50000
3.12,5445.8342,587.7654817,2504.201724,404.3623825,50000
3.13,5444.028074,588.2037127,2510.63479,404.6322551,50000
3.14,5442.214968,588.639816,2517.063685,404.9002082,50000
3.15,5440.394971,589.073797,2523.488434,405.1662629,50000
3.16,5438.56817,589.505661,2529.909061,405.4304405,50000
3.17,5436.734655,589.9354136,2536.325588,405.6927623,50000
3.18,5434.894513,590.36306,2542.73804,405.9532494,50000
3.19,5433.047833,590.7886056,2549.146441,406.2119231,50000
3.2,5431.194703,591.2120558,2555.550815,406.4688047,50000
3.21,5429.335212,591.6334159,2561.951184,406.7239154,50000
3.22,5427.469447,592.0526915,2568.347574,406.9772765,50000
3.23,5425.597498,592.4698877,2574.740007,407.2289091,50000
3.24,5423.719452,592.8850101,2581.128509,407.4788346,50000
3.25,5421.835398,593.2980639,2587.513101,407.7270742,50000
3.26,5419.945424,593.7090546,2593.893809,407.9736491,50000
3.27,5418.049619,594.1179875,2600.270656,408.2185806,50000
3.28,5416.148071,594.5248681,2606.643665,408.4618899,50000
3.29,5414.240867,594.9297016,2613.012861,408.7035982,50000
3.3,5412.328098,595.3324935,2619.378267,408.9437269,50000
3.31,5410.40985,595.7332492,2625.739908,409.1822971,50000
3.32,5408.486213,596.131974,2632.097806,409.4193301,50000
3.33,5406.557274,596.5286732,2638.451986,409.6548471,50000
3.34,5404.623121,596.9233524,2644.802472,409.8888694,50000
